# peak number, freq (kHz)
1,0.48438
2,3.43750
3,5.87500
4,6.75000
5,8.96875
6,10.28125
7,10.68750
8,11.12500
9,11.78125
10,12.59375
11,13.71875
12,14.34375
13,14.93750
14,15.53125
15,15.81250
16,16.71875
17,17.15625
18,17.95313
19,18.54688
20,20.39063
